$SEQPAR
ECHOT=3.0000000000000000
HZPPPM=500.3060830310100187
SEQ='PRESS'
$END
$NMID
ID=''
FMTDAT=(’.16f’)
VOLUME=1.0000000000000000
TRAMP=1.0000000000000000
$END
303718.3858538927161135
-423336.2499993077944964
159805.8435056777088903
-65574.4563434027077165
130469.6993673397373641
-169985.7367121558927465
203120.6675143397878855
-127865.9314088960090885
286981.5004186134319752
-101025.8166790638206294
243878.1013109057967085
15383.1988893965462921
127836.9009639902506024
68654.7911803207098274
38637.5836780767203891
-69911.6283886859746417
189679.4812230232055299
-73581.6562734066828853
157937.5637618807086255
69030.5019322853768244
72243.8654634029371664
11873.9066448383146053
50143.9818435914057773
-40869.5596078938324354
68810.3564144318224862
-32624.0689539806335233
113383.8021287053561537
-59258.6568936546900659
110220.0447000299609499
-26505.2227521440327109
83076.5393625073629664
-51467.4031294392552809
168157.7399360899289604
-33991.9955153618357144
172030.4205618623527698
80755.9925015385815641
49841.7543547849199967
68929.8584006505116122
100069.9458193557366030
6763.1470155506503943
171735.6702952494379133
55554.2224914375838125
135712.2129699127981439
69769.2174042819533497
107188.7193350247398484
39997.0707707875699271
55916.7805104772633058
37798.6313735860821907
100141.8888760127883870
-14164.1803514616913162
150965.6215431133168750
-101.0394493704492902
83565.4121594932657899
62730.3103356037681806
72787.2646806495613419
-3840.3904274455030645
172415.8899025324790273
-52063.6544437791890232
163714.2066631920461077
48159.6785125705864630
80403.9918428506643977
32615.9405065152459429
87024.7850190300523536
-31434.1192678045081266
144853.1104181729024276
-67698.5849221719836351
173961.8853746934910305
10196.6481688341300469
129553.1848280209524091
83354.9540629574476043
31047.5186194327179692
14677.5573329625931365
90973.0475258138612844
-59003.3124155505283852
146447.7444536104740109
-7914.6399183719440771
115628.1418617417803034
-14907.7473622244324361
125690.4520805298961932
-5697.2651253445064867
158619.7213394448917825
61250.3296277558256406
84170.1106856152036926
80537.7404062142595649
92660.7638225099799456
33575.8625680858822307
47200.9797208576783305
28303.9770483846659772
60200.1007218330778414
-21143.0209578300527937
159267.2127712410874665
-39074.0195367772466852
177803.9787365615193266
30919.3113529083675530
119342.9325887498853263
48392.9784794015286025
101479.8195664584636688
23169.5583554916302091
83148.8158601627073949
30512.1528784020410967
59360.7368487129133428
29196.6634499014726316
58223.7912650990037946
-4716.0068980487776571
113181.4425083143432857
1605.2885472309592387
111659.2274661681003636
8193.4133477579016471
127359.5572389565495541
44653.7954716573076439
81527.7274077689071419
61149.8380337104463251
60608.3927074102757615
13840.5326835001287691
64913.0519515898413374
-16757.0032011907132983
53339.0126515303927590
-17393.1358659262041328
112299.0029103894339642
-62095.0935752336445148
160252.7475421883282252
-11203.6275910813728842
158134.7560714156134054
76877.6273683958715992
100959.1190219278796576
93802.3397607678343775
75680.7595627029659227
53914.6580772927118232
83272.6112525074713631
18317.4469567850719613
96056.3744716503133532
18864.4023537531502370
67153.7651993989711627
49606.4315498102878337
43851.6217711455028621
18858.3569963626978279
76068.7140994150686311
-28399.6972669238493836
121316.9283425665344112
19511.6486472304131894
74554.4378552909620339
29057.8687735937928664
64865.9563873551960569
26622.8516563302364375
92365.8734057023393689
18582.0765326025357354
131459.4462861962092575
39893.7169568620956852
92682.7333125598815968
63546.7384662286276580
64377.4458612381131388
47664.0102910755522316
82424.6805315042292932
17248.8127905087349063
110167.4427978367748437
32722.4370849849037768
81769.1419835646665888
71744.8166648599872133
58601.7331360415555537
51090.5899106251526973
66344.4523087757552275
9429.6355331795894017
76711.5107000136631541
34291.5366864833267755
36473.4630835004936671
26407.7589008542199736
62005.2230997623701114
-519.4544058592570082
88849.1970913289260352
11484.5493370569565741
115050.7426562023028964
-1203.6791687585698583
82566.6805018012673827
53386.0516982629633276
47875.0287496439341339
70637.8541003039426869
41495.9299217367442907
34707.1000202447903575
59051.7681205678891274
51893.9281935179533320
59254.5542389580805320
53944.1656661483721109
34516.0033389703312423
15497.4535418485575065
54036.2273711622983683
7330.7798647838308170
107389.4879498774680542
53156.8552643502334831
72133.3539141756482422
67535.8250965409679338
28922.6956894215109060
40299.5982384440794704
34552.7696551872868440
-21956.8526519027473114
92774.5268489260779461
26594.6439477195344807
82775.5126817222480895
68821.7924822313216282
21312.8279633893798746
82617.2490340283693513
4023.0233542946734815
24669.2903891044588818
21863.7115080655203201
-8923.4136272877149167
56418.3922040122415638
21426.0114414299605414
43039.5297320259924163
34753.1275896130682668
61092.1185280469071586
20691.9140168002086284
89853.9913584151217947
27851.2450159125182836
93942.2431814620504156
57584.1287597783593810
37162.8603557730239118
88674.3706253504642518
-311.4381309618092359
45279.8169483974124887
-15917.3934797479414556
22375.7105302987911273
38150.7719217703415779
14059.8447082811271684
53954.3504540308204014
19279.8572188023608760
72033.2749197834200459
30459.3296824397693854
65310.6361267328320537
38532.7805334550212137
45163.1380900222939090
59598.5507266411368619
46364.4847683732223231
39788.2870254145964282
24505.1261375154026609
22171.0840295052730653
53286.2453059399122139
12902.3737454969887040
70847.2007258709199959
29516.8546739986632019
36858.1970661761879455
36458.1422530311901937
23073.2710037463111803
28483.7785936001455411
42849.3102484867922612
26419.0968648683628999
28410.0286970157394535
45012.7719305260325200
14603.4610033559692965
25556.5671958325365267
49781.5197005903246463
6075.7564033128446681
52431.9642868813607492
32353.8190716588651412
52770.5953302576235728
66956.1299233860918321
30826.6012285041761061
36229.7628725375980139
18202.2315176300908206
-7695.9272148736981762
62027.0634051416927832
-24673.9171256907357019
50954.5704089838618529
20586.8873305434790382
64635.3126296213449677
68547.2643217821751023
25762.9847990460039000
31378.3899591617337137
22959.8344655239015992
20898.4702223591993970
25264.0763721134935622
36511.1662435100588482
23078.0175722997519188
36697.4663644771862892
27661.5048948514813674
-1598.9642397881966644
17556.2312460513494443
-28733.2162052415915241
41251.9358484807962668
28035.1650007049429405
37022.8594004535916611
26630.0831302493897965
22038.3635884490540775
15885.8195407647417596
42495.3987473032902926
-4333.4295081194441082
43272.0649795725621516
11989.4003310312164103
35286.9698956197753432
26457.3362318989675259
60251.5105475171731086
20347.3997319990776305
41962.9663405526371207
17031.3296147311993991
16849.8320974699599901
55148.8568866193891154
-760.0398513240569400
26276.7269566665199818
17096.3234772881369281
6046.1783287547514192
18820.7699191982428601
21912.4990155125487945
36250.1187032879461185
259.3992297577981958
20469.0464147675993445
29014.3450316680136893
31203.7991891409692471
-1601.3129350823376171
24871.3945109214946569
12252.3967419983255240
37655.8181310453583137
8271.0644143270055793
17444.2071012749402144
37905.2701490524923429
14382.9099209083415190
10777.0590524829804053
43018.8411222151116817
5323.8653905707542435
33331.1091567581170239
31326.4138892789633246
32974.5964719577968935
58703.9664871122731711
-5482.4039175403813715
11885.8903144568739663
23434.0148061809086357
-2257.7521357750229072
53228.3169075421028538
19414.3719284350154339
18194.8906294315020205
21714.8703797099078656
18057.1927370014273038
18682.1989237412235525
9910.1471378129263030
35555.3315933914054767
13934.9242733798328118
10659.0464750609025941
4192.5161311433457740
17543.5928528929980530
10456.7968894916048157
-3122.4814735938193735
760.5611105805660372
5042.1229797194537241
51851.6170540823150077
9887.5059310179549357
42246.2889360937551828
25234.4095627516289824
13280.0177168199606967
41283.2790644078413607
-112.8833362359646770
26185.5937126958087902
26465.1870580972608877
14791.8006482822202088
22324.3521805436866998
14278.7775032427834958
21289.6364302727670292
183.9632349365566881
23075.0552536263639922
-6348.1114923107825234
36224.9876315924338996
39880.7855567375881947
25752.9468617041566176
49185.9299367886051186
6613.7927273573477578
23729.2165743776204181
11051.3776598534022924
23542.8467645745258778
36620.7657001313273213
20901.5527805407036794
35372.8850132147417753
23162.3516689295611286
24083.8563688386893773
11019.7080604444527125
11136.2642667818308837
5683.9508050423200984
3506.0770912592411150
14923.9896493498727068
21198.0480809684195265
34950.9196403427777113
17599.4104751978666172
18511.4894804630930594
28123.8411866644310066
3722.9877363170394347
34432.4437953459710116
9458.5245545411162311
23372.0983181606461585
31872.0874675633058359
3659.0240610323539840
28186.4713192534109112
-6316.1902889645216419
3629.8075966974306539
12333.8510414332267828
4881.6237446104569244
17464.3753763959830394
3635.7989940056245359
9561.9440348743137292
8413.9983483584619535
7879.0693536692306225
-2370.9400703718397381
37192.0800730237169773
4142.6870511093902678
26159.8303329950140323
36136.4417115699761780
6604.7774080668641545
37052.4573459931270918
18571.7606424138939474
11182.5404745766481938
17148.7432173136876372
-2390.5683086367876058
30344.5724807678197976
16257.3086112732125912
-4464.1155882460343491
18028.9812167710915674
25301.5215001836986630
10545.1560307737854600
8973.3336393270528788
22603.3614829923608340
2396.1101202911004293
34936.7526845918400795
10945.8752054603046417
5849.7817751821712591
1111.1524944744505774
9015.9673550541901932
13618.0736966313415905
9575.3433612148073735
21408.4295471847181034
4608.7253857086452626
-6864.9880835933572598
19238.7196598562986765
